Data from c2t_JH05_50uM_Absorbance_11-14-35-023.txt Node
Date: Thu Dec 21 11:14:35 GMT 2017
User: egn-admin
Spectrometer: OFX00224
Trigger mode: 0
Integration Time (sec): 5.000000E-2
Scans to average: 1
Nonlinearity correction enabled: false
Boxcar width: 0
Storing dark spectrum: false
XAxis mode: Wavelengths
Number of Pixels in Spectrum: 2136
>>>>>Begin Spectral Data<<<<<
154.91	0.14
155.289	0.38
155.669	0.12
156.048	-0
156.428	-0
156.807	-0.12
157.186	-0
157.566	-0.32
157.945	0.66
158.325	-0.9
158.704	-0
159.083	-0
159.462	0.05
159.842	-0
160.221	-0.07
160.6	0.08
160.979	0.12
161.359	-0
161.738	-0
162.117	-0.52
162.496	-0
162.875	-0.48
163.254	0.17
163.633	-0
164.012	0.6
164.391	-0
164.77	-0
165.149	-0
165.528	-0
165.907	-1.26
166.286	-0.15
166.665	-0
167.044	1.02
167.423	-0.16
167.802	-0
168.181	-0
168.559	-0
168.938	-0
169.317	-0
169.696	-0.09
170.074	0.42
170.453	0.12
170.832	-0.06
171.21	-0.11
171.589	-0
171.968	0.05
172.346	-0
172.725	0.7
173.103	-0
173.482	0.14
173.861	-0
174.239	-0.27
174.617	0.15
174.996	-0
175.374	-0
175.753	-0
176.131	-0
176.51	-0
176.888	0.88
177.266	0.22
177.645	0.3
178.023	0.3
178.401	-0
178.779	-0
179.158	0.19
179.536	-0
179.914	0.78
180.292	-0
180.67	0.51
181.048	1.08
181.427	-0
181.805	-0
182.183	-0
182.561	-0
182.939	-0.14
183.317	-0
183.695	-0.43
184.073	-0
184.451	-0.18
184.829	0.7
185.206	1.15
185.584	-0.36
185.962	-0
186.34	-0.28
186.718	-0.21
187.096	-0
187.473	0.58
187.851	-0.12
188.229	-0.57
188.607	-0.27
188.984	0.44
189.362	-0.03
189.74	0.12
190.117	0.05
190.495	-0.03
190.872	0.01
191.25	0.48
191.627	0.32
192.005	0.2
192.382	-0
192.76	-0.01
193.137	0.1
193.515	0.18
193.892	-0
194.269	-0.02
194.647	0.66
195.024	-0.07
195.401	0.09
195.779	-0.03
196.156	-0.01
196.533	-0.28
196.91	-0.35
197.288	-0.43
197.665	-1.34
198.042	-0.01
198.419	-0.19
198.796	0.57
199.173	0.26
199.55	-0.44
199.927	-0.73
200.304	-0.16
200.681	-0.16
201.058	0.18
201.435	0.33
201.812	0.02
202.189	0.49
202.566	0.09
202.943	0.4
203.32	0.34
203.697	0.1
204.073	-0.06
204.45	0.45
204.827	-0.03
205.204	0.4
205.58	-0.01
205.957	-0.18
206.334	0.3
206.71	-0.08
207.087	-0.04
207.464	-0.24
207.84	0.32
208.217	0.21
208.593	-0.19
208.97	-0.14
209.346	-0.05
209.723	0.04
210.099	-0.04
210.476	-0.22
210.852	0.93
211.228	0.37
211.605	0.26
211.981	0.09
212.357	-0
212.733	0.22
213.11	0.21
213.486	0.23
213.862	0.36
214.238	0.12
214.614	-0.15
214.991	-0.16
215.367	-0.05
215.743	0.24
216.119	-0.03
216.495	0.02
216.871	0.15
217.247	0.06
217.623	0.37
217.999	0.21
218.375	0.04
218.751	-0.09
219.127	0.32
219.502	-0.06
219.878	0.01
220.254	0.06
220.63	0.42
221.006	0.07
221.381	0.36
221.757	-0.02
222.133	0.21
222.508	0.16
222.884	0.19
223.26	-0.11
223.635	0.04
224.011	0.37
224.386	0.39
224.762	0.07
225.137	0.45
225.513	0.02
225.888	-0.57
226.264	0.44
226.639	0.34
227.014	0.17
227.39	0.37
227.765	-0.01
228.14	0.24
228.516	0.16
228.891	-0.04
229.266	-0.13
229.641	-0
230.017	-0.07
230.392	-0.03
230.767	-0.35
231.142	-0.19
231.517	0.05
231.892	-0.01
232.267	0.23
232.642	0.23
233.017	0.22
233.392	0.62
233.767	0.07
234.142	-0.15
234.517	0.22
234.892	0.4
235.267	0.28
235.641	0.26
236.016	0.04
236.391	-0.06
236.766	-0.03
237.14	0.32
237.515	0.13
237.89	0.7
238.264	0.56
238.639	0.18
239.014	0.06
239.388	0.23
239.763	0.12
240.137	0.02
240.512	0.13
240.886	0.31
241.261	-0.05
241.635	-0.03
242.009	0.03
242.384	-0.02
242.758	0.28
243.132	0.08
243.507	-0.14
243.881	0.2
244.255	0.52
244.629	-0.07
245.004	0.38
245.378	0.2
245.752	0.12
246.126	0.04
246.5	0.17
246.874	0.07
247.248	0.27
247.622	0.12
247.996	0.09
248.37	0.22
248.744	0.29
249.118	0.82
249.492	-0
249.866	0.23
250.24	0.2
250.613	0.23
250.987	0.06
251.361	0.18
251.735	0.01
252.108	-0.01
252.482	0.24
252.856	0.72
253.229	0.09
253.603	0.09
253.977	0.14
254.35	0.11
254.724	0.35
255.097	0.24
255.471	0.17
255.844	0.19
256.218	0.18
256.591	0.33
256.964	0.2
257.338	0.29
257.711	0.29
258.084	0.34
258.458	0.36
258.831	0.22
259.204	0.29
259.577	0.24
259.95	0.32
260.323	0.42
260.697	0.22
261.07	0.31
261.443	0.25
261.816	0.26
262.189	0.15
262.562	0.18
262.935	0.3
263.308	0.2
263.68	0.17
264.053	0.25
264.426	0.25
264.799	0.22
265.172	0.17
265.545	0.23
265.917	0.18
266.29	0.2
266.663	0.22
267.035	0.24
267.408	0.24
267.781	0.19
268.153	0.17
268.526	0.19
268.898	0.18
269.271	0.18
269.643	0.17
270.016	0.19
270.388	0.17
270.76	0.13
271.133	0.17
271.505	0.16
271.877	0.18
272.25	0.18
272.622	0.16
272.994	0.16
273.366	0.14
273.739	0.18
274.111	0.17
274.483	0.14
274.855	0.16
275.227	0.16
275.599	0.15
275.971	0.15
276.343	0.17
276.715	0.15
277.087	0.16
277.459	0.14
277.831	0.17
278.203	0.14
278.574	0.15
278.946	0.15
279.318	0.17
279.69	0.18
280.061	0.16
280.433	0.16
280.805	0.17
281.176	0.18
281.548	0.17
281.92	0.17
282.291	0.17
282.663	0.18
283.034	0.19
283.406	0.17
283.777	0.17
284.148	0.17
284.52	0.19
284.891	0.18
285.262	0.18
285.634	0.19
286.005	0.2
286.376	0.21
286.747	0.21
287.119	0.2
287.49	0.23
287.861	0.23
288.232	0.21
288.603	0.22
288.974	0.23
289.345	0.22
289.716	0.25
290.087	0.23
290.458	0.22
290.829	0.24
291.2	0.23
291.571	0.23
291.941	0.24
292.312	0.26
292.683	0.25
293.054	0.25
293.424	0.26
293.795	0.26
294.166	0.25
294.536	0.25
294.907	0.27
295.277	0.26
295.648	0.27
296.018	0.27
296.389	0.26
296.759	0.28
297.13	0.28
297.5	0.27
297.871	0.26
298.241	0.28
298.611	0.28
298.981	0.3
299.352	0.29
299.722	0.28
300.092	0.3
300.462	0.31
300.832	0.3
301.202	0.3
301.573	0.31
301.943	0.32
302.313	0.31
302.683	0.33
303.053	0.31
303.422	0.33
303.792	0.32
304.162	0.34
304.532	0.33
304.902	0.35
305.272	0.34
305.641	0.35
306.011	0.36
306.381	0.36
306.75	0.35
307.12	0.36
307.49	0.37
307.859	0.37
308.229	0.38
308.598	0.38
308.968	0.38
309.337	0.38
309.707	0.38
310.076	0.39
310.445	0.39
310.815	0.39
311.184	0.39
311.553	0.39
311.923	0.42
312.292	0.41
312.661	0.42
313.03	0.43
313.399	0.43
313.768	0.43
314.137	0.43
314.506	0.43
314.875	0.44
315.244	0.44
315.613	0.45
315.982	0.45
316.351	0.45
316.72	0.46
317.089	0.47
317.458	0.47
317.826	0.47
318.195	0.48
318.564	0.48
318.933	0.49
319.301	0.49
319.67	0.48
320.038	0.5
320.407	0.5
320.775	0.51
321.144	0.51
321.512	0.51
321.881	0.52
322.249	0.52
322.618	0.53
322.986	0.53
323.354	0.52
323.723	0.54
324.091	0.55
324.459	0.56
324.827	0.55
325.195	0.56
325.564	0.56
325.932	0.57
326.3	0.56
326.668	0.57
327.036	0.58
327.404	0.59
327.772	0.59
328.14	0.57
328.508	0.59
328.875	0.61
329.243	0.63
329.611	0.64
329.979	0.63
330.346	0.63
330.714	0.63
331.082	0.61
331.449	0.62
331.817	0.62
332.185	0.63
332.552	0.63
332.92	0.64
333.287	0.67
333.655	0.66
334.022	0.68
334.389	0.67
334.757	0.67
335.124	0.67
335.491	0.68
335.859	0.68
336.226	0.67
336.593	0.69
336.96	0.68
337.327	0.68
337.695	0.69
338.062	0.7
338.429	0.7
338.796	0.71
339.163	0.7
339.53	0.71
339.897	0.73
340.263	0.71
340.63	0.72
340.997	0.72
341.364	0.72
341.731	0.73
342.097	0.74
342.464	0.72
342.831	0.73
343.197	0.74
343.564	0.73
343.931	0.72
344.297	0.74
344.664	0.75
345.03	0.72
345.396	0.74
345.763	0.73
346.129	0.74
346.496	0.74
346.862	0.75
347.228	0.75
347.594	0.76
347.961	0.74
348.327	0.75
348.693	0.76
349.059	0.76
349.425	0.76
349.791	0.75
350.157	0.77
350.523	0.76
350.889	0.76
351.255	0.76
351.621	0.75
351.987	0.76
352.353	0.76
352.719	0.76
353.084	0.75
353.45	0.76
353.816	0.74
354.181	0.75
354.547	0.74
354.913	0.77
355.278	0.75
355.644	0.75
356.009	0.75
356.375	0.72
356.74	0.74
357.106	0.73
357.471	0.73
357.836	0.71
358.202	0.75
358.567	0.72
358.932	0.69
359.297	0.72
359.663	0.71
360.028	0.69
360.393	0.71
360.758	0.7
361.123	0.69
361.488	0.7
361.853	0.7
362.218	0.69
362.583	0.69
362.948	0.66
363.312	0.67
363.677	0.66
364.042	0.69
364.407	0.66
364.772	0.66
365.136	0.65
365.501	0.66
365.865	0.66
366.23	0.62
366.595	0.65
366.959	0.65
367.324	0.64
367.688	0.64
368.052	0.61
368.417	0.62
368.781	0.61
369.145	0.61
369.51	0.58
369.874	0.59
370.238	0.58
370.602	0.57
370.967	0.56
371.331	0.57
371.695	0.57
372.059	0.57
372.423	0.54
372.787	0.54
373.151	0.55
373.515	0.54
373.878	0.53
374.242	0.53
374.606	0.53
374.97	0.53
375.334	0.49
375.697	0.49
376.061	0.52
376.425	0.51
376.788	0.49
377.152	0.48
377.515	0.49
377.879	0.48
378.242	0.47
378.606	0.46
378.969	0.46
379.333	0.45
379.696	0.45
380.059	0.44
380.422	0.43
380.786	0.44
381.149	0.41
381.512	0.41
381.875	0.4
382.238	0.39
382.601	0.39
382.964	0.38
383.327	0.37
383.69	0.38
384.053	0.37
384.416	0.36
384.779	0.35
385.142	0.35
385.504	0.34
385.867	0.33
386.23	0.32
386.593	0.33
386.955	0.32
387.318	0.33
387.68	0.31
388.043	0.29
388.405	0.3
388.768	0.29
389.13	0.28
389.493	0.29
389.855	0.29
390.217	0.28
390.58	0.28
390.942	0.26
391.304	0.27
391.666	0.25
392.028	0.26
392.391	0.26
392.753	0.25
393.115	0.25
393.477	0.24
393.839	0.25
394.201	0.24
394.563	0.25
394.924	0.24
395.286	0.23
395.648	0.24
396.01	0.22
396.371	0.23
396.733	0.22
397.095	0.23
397.456	0.22
397.818	0.21
398.18	0.22
398.541	0.21
398.903	0.21
399.264	0.2
399.625	0.2
399.987	0.2
400.348	0.2
400.709	0.2
401.071	0.21
401.432	0.2
401.793	0.2
402.154	0.19
402.515	0.19
402.876	0.18
403.238	0.2
403.599	0.19
403.96	0.2
404.32	0.19
404.681	0.2
405.042	0.2
405.403	0.19
405.764	0.19
406.125	0.2
406.485	0.19
406.846	0.2
407.207	0.19
407.567	0.19
407.928	0.19
408.288	0.19
408.649	0.18
409.009	0.18
409.37	0.18
409.73	0.18
410.091	0.17
410.451	0.17
410.811	0.19
411.171	0.17
411.532	0.17
411.892	0.17
412.252	0.16
412.612	0.16
412.972	0.17
413.332	0.16
413.692	0.17
414.052	0.17
414.412	0.17
414.772	0.18
415.132	0.18
415.492	0.17
415.851	0.17
416.211	0.17
416.571	0.18
416.931	0.17
417.29	0.18
417.65	0.18
418.009	0.18
418.369	0.17
418.728	0.17
419.088	0.17
419.447	0.17
419.807	0.16
420.166	0.15
420.525	0.17
420.884	0.17
421.244	0.16
421.603	0.16
421.962	0.16
422.321	0.16
422.68	0.17
423.039	0.17
423.398	0.16
423.757	0.16
424.116	0.16
424.475	0.17
424.834	0.17
425.193	0.16
425.551	0.15
425.91	0.16
426.269	0.17
426.628	0.16
426.986	0.15
427.345	0.16
427.703	0.15
428.062	0.16
428.42	0.16
428.779	0.16
429.137	0.16
429.496	0.16
429.854	0.16
430.212	0.17
430.57	0.16
430.929	0.15
431.287	0.15
431.645	0.17
432.003	0.15
432.361	0.15
432.719	0.16
433.077	0.15
433.435	0.15
433.793	0.15
434.151	0.14
434.509	0.14
434.866	0.15
435.224	0.16
435.582	0.16
435.94	0.15
436.297	0.15
436.655	0.14
437.012	0.17
437.37	0.14
437.727	0.15
438.085	0.15
438.442	0.14
438.8	0.15
439.157	0.13
439.514	0.13
439.872	0.14
440.229	0.14
440.586	0.14
440.943	0.13
441.3	0.12
441.657	0.13
442.014	0.13
442.371	0.14
442.728	0.14
443.085	0.14
443.442	0.12
443.799	0.13
444.156	0.13
444.513	0.12
444.869	0.13
445.226	0.13
445.583	0.13
445.939	0.13
446.296	0.12
446.652	0.13
447.009	0.13
447.365	0.12
447.722	0.12
448.078	0.13
448.434	0.11
448.791	0.12
449.147	0.1
449.503	0.11
449.859	0.1
450.215	0.11
450.571	0.11
450.928	0.11
451.284	0.1
451.64	0.11
451.995	0.11
452.351	0.1
452.707	0.1
453.063	0.11
453.419	0.11
453.775	0.09
454.13	0.1
454.486	0.09
454.842	0.11
455.197	0.09
455.553	0.09
455.908	0.09
456.264	0.09
456.619	0.08
456.975	0.09
457.33	0.08
457.685	0.09
458.04	0.08
458.396	0.08
458.751	0.08
459.106	0.08
459.461	0.09
459.816	0.07
460.171	0.08
460.526	0.07
460.881	0.07
461.236	0.07
461.591	0.06
461.946	0.07
462.301	0.07
462.655	0.07
463.01	0.06
463.365	0.06
463.719	0.06
464.074	0.06
464.428	0.06
464.783	0.05
465.137	0.05
465.492	0.05
465.846	0.05
466.201	0.04
466.555	0.06
466.909	0.05
467.263	0.04
467.618	0.04
467.972	0.05
468.326	0.03
468.68	0.04
469.034	0.03
469.388	0.03
469.742	0.05
470.096	0.04
470.45	0.03
470.804	0.03
471.157	0.03
471.511	0.02
471.865	0.03
472.218	0.02
472.572	0.04
472.926	0.02
473.279	0.02
473.633	0.02
473.986	0.03
474.34	0.02
474.693	0.01
475.046	0.02
475.4	0.02
475.753	0.02
476.106	0.01
476.459	0.01
476.812	0.01
477.165	0.01
477.519	0.02
477.872	0.01
478.224	0
478.577	0.02
478.93	0.01
479.283	0.03
479.636	-0
479.989	0.02
480.341	0
480.694	0.02
481.047	0.01
481.399	0.01
481.752	0
482.104	0.01
482.457	0
482.809	-0
483.162	-0
483.514	-0.01
483.866	-0
484.219	-0
484.571	-0.01
484.923	0.01
485.275	0
485.627	-0
485.979	-0
486.331	0.01
486.683	0.01
487.035	0.01
487.387	0.01
487.739	0.01
488.091	0
488.443	-0.02
488.794	-0.01
489.146	-0.01
489.498	-0.01
489.849	-0.02
490.201	-0.01
490.552	-0.02
490.904	-0.01
491.255	0
491.607	0
491.958	0.01
492.309	-0.01
492.661	-0.01
493.012	0
493.363	0
493.714	-0.01
494.065	0.01
494.416	-0
494.767	-0.01
495.118	-0.01
495.469	0.01
495.82	-0
496.171	-0
496.522	-0.01
496.872	0
497.223	-0.01
497.574	-0.02
497.924	0.01
498.275	0
498.626	0
498.976	-0.01
499.327	-0
499.677	-0.01
500.027	-0.01
500.378	-0.01
500.728	-0.03
501.078	-0.03
501.428	-0.01
501.779	-0.01
502.129	-0.02
502.479	-0
502.829	-0.01
503.179	-0.02
503.529	-0.01
503.879	-0.01
504.229	0.01
504.578	-0.02
504.928	-0.01
505.278	-0.01
505.628	-0.02
505.977	-0.02
506.327	-0.02
506.676	-0.03
507.026	-0.01
507.375	-0.03
507.725	-0.03
508.074	-0.02
508.424	-0.02
508.773	-0.02
509.122	-0.02
509.471	-0.02
509.82	-0.02
510.17	-0.02
510.519	-0.02
510.868	-0.02
511.217	-0.02
511.566	-0.02
511.915	-0.01
512.263	-0.01
512.612	-0
512.961	-0.02
513.31	-0.02
513.659	-0.02
514.007	-0.03
514.356	-0.03
514.704	-0.03
515.053	-0.02
515.401	-0.03
515.75	-0.02
516.098	-0.03
516.447	-0.03
516.795	-0.02
517.143	-0.03
517.491	-0.03
517.839	-0.04
518.188	-0.03
518.536	-0.03
518.884	-0.02
519.232	-0.03
519.58	-0.03
519.928	-0.03
520.275	-0.03
520.623	-0.01
520.971	-0.04
521.319	-0.01
521.666	-0.03
522.014	-0.04
522.362	-0.04
522.709	-0.03
523.057	-0.04
523.404	-0.03
523.752	-0.04
524.099	-0.03
524.446	-0.02
524.794	-0.04
525.141	-0.02
525.488	-0.02
525.835	-0.02
526.182	-0.02
526.529	-0.01
526.876	-0.03
527.223	-0.02
527.57	-0.02
527.917	-0.02
528.264	-0.03
528.611	-0.04
528.958	-0.03
529.304	-0.02
529.651	-0.04
529.998	-0.03
530.344	-0.03
530.691	-0.03
531.037	-0.03
531.384	-0.03
531.73	-0.02
532.076	-0.04
532.423	-0.04
532.769	-0.02
533.115	-0.03
533.461	-0.05
533.807	-0.02
534.154	-0.02
534.5	-0.03
534.846	-0.03
535.192	-0.03
535.537	-0.03
535.883	-0.03
536.229	-0.03
536.575	-0.02
536.921	-0.02
537.266	-0.04
537.612	-0.02
537.957	-0.01
538.303	-0.04
538.649	-0.02
538.994	-0.03
539.339	-0.04
539.685	-0.02
540.03	-0.03
540.375	-0.03
540.721	-0.04
541.066	-0.03
541.411	-0.02
541.756	-0.03
542.101	-0.02
542.446	-0.02
542.791	-0.01
543.136	-0.03
543.481	-0.03
543.825	-0.04
544.17	-0.04
544.515	-0.02
544.86	-0.02
545.204	-0.03
545.549	-0.03
545.893	-0.04
546.238	-0.03
546.582	-0.02
546.927	-0.05
547.271	-0.03
547.615	-0.04
547.96	-0.03
548.304	-0.04
548.648	-0.04
548.992	-0.04
549.336	-0.03
549.68	-0.03
550.024	-0.04
550.368	-0.03
550.712	-0.03
551.056	-0.02
551.4	-0.03
551.743	-0.03
552.087	-0.02
552.431	-0.03
552.774	-0.02
553.118	-0.03
553.462	-0.02
553.805	-0.03
554.148	-0.02
554.492	-0.03
554.835	-0.03
555.178	-0.02
555.522	-0.04
555.865	-0.03
556.208	-0.03
556.551	-0.04
556.894	-0.03
557.237	-0.02
557.58	-0.03
557.923	-0.03
558.266	-0.03
558.609	-0.03
558.952	-0.03
559.294	-0.03
559.637	-0.04
559.98	-0.03
560.322	-0.02
560.665	-0.04
561.007	-0.03
561.35	-0.05
561.692	-0.03
562.034	-0.04
562.377	-0.03
562.719	-0.03
563.061	-0.04
563.403	-0.03
563.745	-0.03
564.088	-0.02
564.43	-0.02
564.772	-0.03
565.113	-0.03
565.455	-0.03
565.797	-0.03
566.139	-0.03
566.481	-0.03
566.822	-0.04
567.164	-0.03
567.506	-0.04
567.847	-0.03
568.189	-0.03
568.53	-0.04
568.872	-0.03
569.213	-0.02
569.554	-0.03
569.895	-0.02
570.237	-0.03
570.578	-0.03
570.919	-0.04
571.26	-0.03
571.601	-0.03
571.942	-0.02
572.283	-0.02
572.624	-0.02
572.965	-0.02
573.306	-0.03
573.646	-0.03
573.987	-0.04
574.328	-0.04
574.668	-0.04
575.009	-0.03
575.349	-0.04
575.69	-0.02
576.03	-0.03
576.37	-0.03
576.711	-0.03
577.051	-0.03
577.391	-0.03
577.731	-0.04
578.072	-0.03
578.412	-0.03
578.752	-0.03
579.092	-0.03
579.431	-0.02
579.771	-0.03
580.111	-0.02
580.451	-0.02
580.791	-0.03
581.13	-0.01
581.47	-0.03
581.81	-0.03
582.149	-0.04
582.489	-0.03
582.828	-0.02
583.167	-0.02
583.507	-0.02
583.846	-0.03
584.185	-0.02
584.525	-0.02
584.864	-0.03
585.203	-0.03
585.542	-0.02
585.881	-0.02
586.22	-0.03
586.559	-0.03
586.898	-0.03
587.236	-0.03
587.575	-0.03
587.914	-0.03
588.252	-0.03
588.591	-0.04
588.93	-0.02
589.268	-0.04
589.607	-0.02
589.945	-0.02
590.283	-0.03
590.622	-0.03
590.96	-0.03
591.298	-0.04
591.636	-0.02
591.974	-0.04
592.313	-0.04
592.651	-0.04
592.989	-0.05
593.326	-0.04
593.664	-0.05
594.002	-0.04
594.34	-0.04
594.678	-0.04
595.015	-0.03
595.353	-0.03
595.691	-0.03
596.028	-0.03
596.366	-0.05
596.703	-0.03
597.04	-0.05
597.378	-0.03
597.715	-0.05
598.052	-0.04
598.389	-0.05
598.726	-0.04
599.064	-0.04
599.401	-0.04
599.738	-0.04
600.074	-0.04
600.411	-0.04
600.748	-0.04
601.085	-0.03
601.422	-0.03
601.758	-0.02
602.095	-0.02
602.432	-0.02
602.768	-0.03
603.105	-0.02
603.441	-0.02
603.777	-0.03
604.114	-0.03
604.45	-0.03
604.786	-0.01
605.122	-0.02
605.459	-0.03
605.795	-0.03
606.131	-0.02
606.467	-0.03
606.803	-0.03
607.139	-0.04
607.474	-0.03
607.81	-0.03
608.146	-0.03
608.482	-0.03
608.817	-0.04
609.153	-0.03
609.488	-0.05
609.824	-0.03
610.159	-0.04
610.495	-0.04
610.83	-0.03
611.165	-0.03
611.5	-0.04
611.836	-0.04
612.171	-0.04
612.506	-0.04
612.841	-0.03
613.176	-0.04
613.511	-0.04
613.845	-0.04
614.18	-0.02
614.515	-0.05
614.85	-0.04
615.184	-0.03
615.519	-0.03
615.854	-0.03
616.188	-0.03
616.523	-0.04
616.857	-0.03
617.191	-0.03
617.526	-0.03
617.86	-0.03
618.194	-0.05
618.528	-0.03
618.862	-0.05
619.196	-0.04
619.53	-0.04
619.864	-0.04
620.198	-0.03
620.532	-0.03
620.866	-0.04
621.2	-0.05
621.533	-0.04
621.867	-0.04
622.201	-0.02
622.534	-0.03
622.868	-0.02
623.201	-0.03
623.534	-0.03
623.868	-0.02
624.201	-0.04
624.534	-0.04
624.868	-0.03
625.201	-0.02
625.534	-0.03
625.867	-0.03
626.2	-0.02
626.533	-0.03
626.865	-0.03
627.198	-0.03
627.531	-0.05
627.864	-0.05
628.196	-0.03
628.529	-0.04
628.862	-0.03
629.194	-0.04
629.527	-0.04
629.859	-0.04
630.191	-0.05
630.524	-0.05
630.856	-0.04
631.188	-0.04
631.52	-0.04
631.852	-0.04
632.184	-0.05
632.516	-0.04
632.848	-0.05
633.18	-0.05
633.512	-0.04
633.844	-0.04
634.175	-0.05
634.507	-0.04
634.839	-0.05
635.17	-0.04
635.502	-0.03
635.833	-0.03
636.165	-0.04
636.496	-0.04
636.827	-0.04
637.159	-0.04
637.49	-0.04
637.821	-0.05
638.152	-0.03
638.483	-0.02
638.814	-0.04
639.145	-0.06
639.476	-0.04
639.807	-0.04
640.137	-0.04
640.468	-0.04
640.799	-0.04
641.129	-0.05
641.46	-0.06
641.791	-0.06
642.121	-0.06
642.451	-0.05
642.782	-0.06
643.112	-0.06
643.442	-0.06
643.773	-0.05
644.103	-0.05
644.433	-0.04
644.763	-0.04
645.093	-0.04
645.423	-0.05
645.753	-0.03
646.082	-0.06
646.412	-0.05
646.742	-0.05
647.072	-0.04
647.401	-0.04
647.731	-0.03
648.06	-0.03
648.39	-0.05
648.719	-0.04
649.048	-0.05
649.378	-0.03
649.707	-0.05
650.036	-0.04
650.365	-0.05
650.694	-0.04
651.023	-0.04
651.352	-0.04
651.681	-0.04
652.01	-0.04
652.339	-0.03
652.668	-0.04
652.996	-0.03
653.325	-0.03
653.654	-0.05
653.982	-0.04
654.311	-0.04
654.639	-0.04
654.967	-0.04
655.296	-0.05
655.624	-0.05
655.952	-0.06
656.28	-0.06
656.609	-0.04
656.937	-0.04
657.265	-0.02
657.593	-0.02
657.92	-0.01
658.248	-0.02
658.576	-0.04
658.904	-0.03
659.231	-0.04
659.559	-0.03
659.887	-0.03
660.214	-0.03
660.542	-0.04
660.869	-0.04
661.196	-0.04
661.524	-0.04
661.851	-0.03
662.178	-0.03
662.505	-0.04
662.832	-0.04
663.159	-0.04
663.486	-0.05
663.813	-0.04
664.14	-0.05
664.467	-0.03
664.794	-0.04
665.12	-0.04
665.447	-0.03
665.774	-0.04
666.1	-0.05
666.427	-0.06
666.753	-0.04
667.079	-0.05
667.406	-0.04
667.732	-0.05
668.058	-0.04
668.384	-0.04
668.71	-0.03
669.036	-0.04
669.362	-0.04
669.688	-0.05
670.014	-0.05
670.34	-0.04
670.666	-0.05
670.991	-0.03
671.317	-0.04
671.643	-0.05
671.968	-0.05
672.294	-0.06
672.619	-0.06
672.945	-0.05
673.27	-0.05
673.595	-0.05
673.92	-0.05
674.246	-0.06
674.571	-0.05
674.896	-0.05
675.221	-0.06
675.546	-0.05
675.87	-0.06
676.195	-0.05
676.52	-0.05
676.845	-0.05
677.169	-0.04
677.494	-0.04
677.819	-0.04
678.143	-0.04
678.468	-0.03
678.792	-0.04
679.116	-0.04
679.44	-0.04
679.765	-0.02
680.089	-0.05
680.413	-0.05
680.737	-0.04
681.061	-0.04
681.385	-0.03
681.709	-0.05
682.033	-0.05
682.356	-0.04
682.68	-0.04
683.004	-0.05
683.327	-0.05
683.651	-0.05
683.974	-0.06
684.298	-0.07
684.621	-0.05
684.944	-0.05
685.268	-0.06
685.591	-0.05
685.914	-0.05
686.237	-0.05
686.56	-0.04
686.883	-0.05
687.206	-0.05
687.529	-0.05
687.852	-0.05
688.175	-0.05
688.497	-0.04
688.82	-0.05
689.142	-0.05
689.465	-0.07
689.787	-0.05
690.11	-0.06
690.432	-0.06
690.755	-0.07
691.077	-0.06
691.399	-0.07
691.721	-0.07
692.043	-0.06
692.365	-0.05
692.687	-0.06
693.009	-0.06
693.331	-0.05
693.653	-0.06
693.974	-0.06
694.296	-0.06
694.618	-0.05
694.939	-0.06
695.261	-0.06
695.582	-0.05
695.904	-0.06
696.225	-0.06
696.546	-0.05
696.868	-0.05
697.189	-0.05
697.51	-0.05
697.831	-0.05
698.152	-0.05
698.473	-0.05
698.794	-0.04
699.114	-0.05
699.435	-0.06
699.756	-0.05
700.077	-0.05
700.397	-0.05
700.718	-0.06
701.038	-0.05
701.359	-0.06
701.679	-0.05
701.999	-0.03
702.32	-0.06
702.64	-0.05
702.96	-0.05
703.28	-0.05
703.6	-0.05
703.92	-0.06
704.24	-0.06
704.56	-0.06
704.879	-0.05
705.199	-0.06
705.519	-0.06
705.838	-0.07
706.158	-0.05
706.478	-0.06
706.797	-0.06
707.116	-0.05
707.436	-0.04
707.755	-0.05
708.074	-0.05
708.393	-0.04
708.712	-0.04
709.031	-0.05
709.35	-0.05
709.669	-0.05
709.988	-0.04
710.307	-0.05
710.626	-0.05
710.944	-0.05
711.263	-0.04
711.582	-0.06
711.9	-0.06
712.219	-0.05
712.537	-0.05
712.855	-0.06
713.174	-0.06
713.492	-0.05
713.81	-0.06
714.128	-0.05
714.446	-0.05
714.764	-0.06
715.082	-0.04
715.4	-0.05
715.718	-0.04
716.035	-0.04
716.353	-0.04
716.671	-0.05
716.988	-0.06
717.306	-0.05
717.623	-0.03
717.941	-0.05
718.258	-0.05
718.575	-0.05
718.893	-0.06
719.21	-0.05
719.527	-0.05
719.844	-0.05
720.161	-0.06
720.478	-0.06
720.795	-0.06
721.112	-0.06
721.428	-0.06
721.745	-0.06
722.062	-0.05
722.378	-0.07
722.695	-0.05
723.011	-0.07
723.328	-0.05
723.644	-0.06
723.96	-0.05
724.276	-0.06
724.593	-0.06
724.909	-0.05
725.225	-0.07
725.541	-0.06
725.857	-0.07
726.173	-0.07
726.488	-0.06
726.804	-0.06
727.12	-0.05
727.435	-0.05
727.751	-0.07
728.067	-0.07
728.382	-0.05
728.697	-0.05
729.013	-0.05
729.328	-0.04
729.643	-0.05
729.958	-0.06
730.273	-0.06
730.588	-0.04
730.903	-0.05
731.218	-0.04
731.533	-0.04
731.848	-0.04
732.163	-0.04
732.477	-0.04
732.792	-0.03
733.107	-0.03
733.421	-0.04
733.736	-0.05
734.05	-0.05
734.364	-0.03
734.678	-0.05
734.993	-0.04
735.307	-0.04
735.621	-0.04
735.935	-0.04
736.249	-0.03
736.563	-0.03
736.877	-0.04
737.19	-0.04
737.504	-0.03
737.818	-0.04
738.131	-0.04
738.445	-0.03
738.758	-0.04
739.072	-0.04
739.385	-0.03
739.698	-0.04
740.012	-0.04
740.325	-0.04
740.638	-0.03
740.951	-0.05
741.264	-0.05
741.577	-0.04
741.89	-0.06
742.203	-0.05
742.515	-0.05
742.828	-0.05
743.141	-0.05
743.453	-0.04
743.766	-0.03
744.078	-0.05
744.391	-0.05
744.703	-0.05
745.015	-0.03
745.327	-0.03
745.639	-0.03
745.952	-0.04
746.264	-0.04
746.575	-0.04
746.887	-0.03
747.199	-0.06
747.511	-0.05
747.823	-0.05
748.134	-0.05
748.446	-0.06
748.757	-0.05
749.069	-0.06
749.38	-0.05
749.692	-0.05
750.003	-0.05
750.314	-0.06
750.625	-0.06
750.936	-0.05
751.248	-0.04
751.559	-0.06
751.869	-0.06
752.18	-0.04
752.491	-0.05
752.802	-0.05
753.112	-0.05
753.423	-0.05
753.734	-0.04
754.044	-0.06
754.355	-0.03
754.665	-0.05
754.975	-0.05
755.285	-0.04
755.596	-0.04
755.906	-0.02
756.216	-0.04
756.526	-0.03
756.836	-0.02
757.146	-0.01
757.455	-0.01
757.765	-0.02
758.075	-0.01
758.385	-0.01
758.694	-0
759.004	-0
759.313	-0
759.622	-0.01
759.932	-0.01
760.241	-0
760.55	0
760.859	-0.01
761.168	-0.02
761.477	-0.02
761.786	-0.03
762.095	-0.03
762.404	-0.04
762.713	-0.03
763.021	-0.03
763.33	-0.03
763.639	-0.03
763.947	-0.03
764.256	-0.03
764.564	-0.02
764.872	-0.02
765.181	-0.02
765.489	-0.02
765.797	-0.01
766.105	-0.01
766.413	-0.02
766.721	-0.02
767.029	-0.03
767.337	-0.02
767.644	-0.04
767.952	-0.03
768.26	-0.02
768.567	-0.02
768.875	-0.02
769.182	-0.03
769.49	-0.03
769.797	-0.02
770.104	-0.03
770.411	-0.02
770.718	-0.02
771.026	-0.02
771.333	-0.02
771.639	-0.03
771.946	-0.02
772.253	-0.03
772.56	-0.03
772.867	-0.03
773.173	-0.04
773.48	-0.02
773.786	-0.05
774.093	-0.04
774.399	-0.02
774.705	-0.04
775.012	-0.06
775.318	-0.02
775.624	-0.03
775.93	-0.02
776.236	-0.03
776.542	-0.03
776.848	-0.05
777.154	-0.01
777.459	-0.05
777.765	-0.03
778.071	-0.03
778.376	-0.04
778.682	-0.03
778.987	-0.02
779.292	-0.04
779.598	-0.04
779.903	-0.02
780.208	-0.05
780.513	-0.02
780.818	-0.03
781.123	-0.01
781.428	-0.02
781.733	-0.02
782.038	-0.03
782.343	-0.01
782.647	-0.01
782.952	0
783.256	-0.02
783.561	-0.01
783.865	-0.02
784.17	-0.01
784.474	-0.01
784.778	-0.01
785.082	0.01
785.386	0
785.69	0
785.994	-0.02
786.298	-0
786.602	0
786.906	-0.01
787.209	-0
787.513	0
787.817	-0.01
788.12	0.02
788.424	0.02
788.727	0.01
789.03	0.02
789.333	0.03
789.637	0.02
789.94	0.02
790.243	-0
790.546	0.01
790.849	0.01
791.152	0
791.454	0.01
791.757	0.01
792.06	-0.01
792.362	0
792.665	-0.04
792.967	0
793.27	0.02
793.572	-0
793.874	0.01
794.177	0.03
794.479	0.02
794.781	0.03
795.083	0.06
795.385	0.01
795.687	0.03
795.989	0.01
796.29	0.02
796.592	0.01
796.894	0.01
797.195	0.05
797.497	0.02
797.798	0.03
798.1	0.03
798.401	0.02
798.702	0.02
799.003	0.01
799.304	0.03
799.605	0.01
799.906	0.02
800.207	0.05
800.508	0.04
800.809	0.06
801.11	0.03
801.41	0.04
801.711	0.02
802.011	0.03
802.312	0.07
802.612	0.02
802.913	0.04
803.213	0.05
803.513	0.05
803.813	0.04
804.113	0.02
804.413	0.04
804.713	0.03
805.013	0.03
805.313	0.05
805.613	0.04
805.912	0.07
806.212	0.07
806.511	0.02
806.811	0.04
807.11	0.06
807.41	0.1
807.709	0.07
808.008	0.02
808.307	0.03
808.606	0.06
808.905	0.01
809.204	0.05
809.503	0.08
809.802	0.06
810.101	0.09
810.399	0.02
810.698	0.02
810.997	0.04
811.295	-0.02
811.593	0.01
811.892	0.06
812.19	0.07
812.488	0.07
812.786	0.06
813.084	-0.02
813.383	-0
813.68	0.06
813.978	0.08
814.276	0.1
814.574	0.1
814.872	0.05
815.169	0.07
815.467	0.06
815.764	0.06
816.062	0.04
816.359	0.06
816.656	0.04
816.954	-0
817.251	0.02
817.548	0.03
817.845	0.08
818.142	0.04
818.439	0.05
818.735	0.05
819.032	0.05
819.329	0.05
819.626	0.06
819.922	0.05
820.219	0.04
820.515	0.14
820.811	0.07
821.108	0.02
821.404	0.1
821.7	0.03
821.996	-0
822.292	0.08
822.588	0.05
822.884	0.13
823.18	0.05
823.475	0.07
823.771	0.02
824.067	0
824.362	0.07
824.658	0.04
824.953	0.02
825.249	0.08
825.544	0.07
825.839	0.09
826.134	0.09
826.429	0.11
826.724	0.09
827.019	0.04
827.314	-0.04
827.609	0.05
827.904	0.07
828.198	0.07
828.493	0.11
828.787	0.03
829.082	0.14
829.376	0.16
829.671	-0.01
829.965	0.09
830.259	0.07
830.553	-0.01
830.847	0.05
831.141	-0.05
831.435	0.02
831.729	0.08
832.023	-0
832.317	0.06
832.61	0.06
832.904	0.05
833.197	0.07
833.491	0.07
833.784	-0.01
834.077	-0.05
834.371	0.06
834.664	0.05
834.957	0.02
835.25	-0.02
835.543	0.11
835.836	0.04
836.129	0.01
836.421	0
836.714	-0.1
837.007	0.08
837.299	0.02
837.592	0.01
837.884	0.05
838.177	-0.05
838.469	0
838.761	0.03
839.053	-0.02
839.345	-0.03
839.637	0.11
839.929	-0.05
840.221	0.07
840.513	-0.08
840.805	-0.07
841.096	0.12
841.388	0.12
841.68	-0.01
841.971	-0.04
842.262	0.07
842.554	-0.08
842.845	0.04
843.136	-0.12
843.427	0.06
843.718	0.39
844.009	-0.04
844.3	-0.28
844.591	-0.28
844.882	-0.01
845.173	-0.06
845.463	0.07
845.754	-0.12
846.044	-0.06
846.335	-0.13
846.625	-0.14
846.915	-0.22
847.206	0.39
847.496	-0.18
847.786	-0.16
848.076	-0.46
848.366	0.04
848.656	-0.16
848.945	0.03
849.235	-0.09
849.525	-0.2
849.814	-0.04
850.104	-0.04
850.393	-0.44
850.683	-0.35
850.972	-0.19
851.261	-0.11
851.551	-0.35
851.84	0.07
852.129	0.02
852.418	-0
852.707	-0.41
852.995	-0.04
853.284	-0.08
853.573	-0.46
853.862	-0.09
854.15	0.19
854.439	-0.23
854.727	-0.59
855.015	-0.27
855.304	-0.03
855.592	-0.09
855.88	0.16
856.168	-0.11
856.456	-0.1
856.744	-0.04
857.032	-0.26
857.32	-0.22
857.607	0.2
857.895	-0
858.183	-0.23
858.47	-0.11
858.757	0.18
859.045	-0
859.332	-0
859.619	0.02
859.907	0.63
860.194	-0.29
860.481	-0
860.768	-0
861.054	-0
861.341	0.6
861.628	-0
861.915	-0.59
862.201	0.18
862.488	-0.29
862.774	-0
863.061	0.38
863.347	-0.02
863.633	0.57
863.919	-0
864.205	-0
864.491	-0.1
864.777	-0
865.063	-0.3
865.349	-0
865.635	-0
865.92	-0.49
866.206	-0.26
866.492	-0
866.777	-0.45
867.062	-1.08
867.348	-0
867.633	-0.54
867.918	-0
868.203	-0
868.488	-0
868.773	-0.9
869.058	0.02
869.343	0.07
869.628	-0.2
869.912	-0
870.197	-0
870.482	-0
870.766	-0
871.05	-0
871.335	-0.7
871.619	0.13
871.903	-0
872.187	-0.03
872.471	-0
872.755	-1.08
873.039	0.39
873.323	-0.12
873.607	-0
873.89	-0.24
874.174	0.98
874.458	0.1
874.741	-0
875.024	-0
875.308	0.32
875.591	-0.1
875.874	0.06
876.157	-0
876.44	-0
876.723	0.55
877.006	-0
877.289	-0.6
877.572	-0
877.854	0.16
878.137	-0
878.42	-0
878.702	1.08
878.984	-0.41
879.267	0.35
879.549	-0
879.831	-0.29
880.113	-0.3
880.395	0.85
880.677	-0.88
880.959	-0
